wavelength (nm)
362.59
367.75
372.90
378.07
383.23
388.39
393.55
398.71
403.87
409.03
414.19
419.36
424.52
429.68
434.84
440.00
445.16
450.32
455.48
460.64
465.80
470.96
476.12
481.29
486.45
491.61
496.77
501.93
507.09,
512.25
517.41
522.57
527.73
532.89
538.06
543.21
548.38
553.54
558.70
563.86
569.02
574.18
579.34
584.50
589.66
594.83
599.99
605.14  
610.31
615.47
620.63
625.79
630.95
636.11
641.27
646.43
651.59
656.75
661.92
667.07
672.24
677.40
682.56
687.72
692.88
698.04
703.20
708.36
713.52
718.68
723.85
729.01
734.17
739.33
744.49
749.65
754.81
759.97
765.13
770.29
775.45
780.61
785.78
790.94
796.10
801.26
806.42
811.58
816.74
821.90
827.06
832.23
837.38
842.54
847.71
852.87
858.03
863.19
868.35
873.51
878.67
883.83
888.99
894.16
899.31
904.48
909.64
914.80
919.96
925.12
930.28
935.44
940.60
945.76
950.92
956.09
961.25
966.41
971.57
976.73
981.89
987.05
992.21
997.37
1002.53
1007.69
1012.86
1018.02