wavelength (nm)
369.850006
379.690002
389.529999
399.369995
409.209991
419.059998
428.910004
438.760010
448.609985
458.459991
468.309998
478.170013
488.019989
497.880005
507.739990
517.599976
527.469971
537.330017
547.200012
557.070007
566.940002
576.809998
586.679993
596.559998
606.429993
616.309998
626.190002
636.070007
645.960022
655.840027
665.729980
675.619995
664.140015
673.719971
683.299988
692.880005
702.460022
712.039978
721.630005
731.210022
740.799988
750.380005
759.969971
769.559998
779.140015
788.729980
798.320007
807.909973
817.500000
827.090027
836.679993
846.280029
855.869995
865.469971
875.059998
884.659973
894.250000
903.849976
913.450012
923.049988
932.640015
942.239990
951.849976
961.450012
971.049988
980.650024
990.250000
999.859985
1009.460022
1019.070007
1028.680054
1038.280029
1047.890015
1057.500000
1067.109985
1076.719971
1086.329956
1095.939941
1105.550049
1115.160034
1124.780029
1134.390015
1144.010010
1153.619995
1163.239990
1172.859985
1182.469971
1192.089966
1201.709961
1211.329956
1220.949951
1230.569946
1240.189941
1249.819946
1259.439941
1269.060059
1254.319946
1264.280029
1274.239990
1284.199951
1294.150024
1304.109985
1314.069946
1324.030029
1333.989990
1343.949951
1353.910034
1363.869995
1373.819946
1383.780029
1393.739990
1403.699951
1413.660034
1423.609985
1433.569946
1443.530029
1453.489990
1463.439941
1473.400024
1483.359985
1493.310059
1503.270020
1513.229980
1523.180054
1533.140015
1543.099976
1553.050049
1563.010010
1572.969971
1582.920044
1592.880005
1602.829956
1612.790039
1622.739990
1632.699951
1642.650024
1652.609985
1662.560059
1672.520020
1682.469971
1692.430054
1702.380005
1712.339966
1722.290039
1732.250000
1742.199951
1752.150024
1762.109985
1772.060059
1782.020020
1791.969971
1801.920044
1811.880005
1821.829956
1831.780029
1841.729980
1851.689941
1861.640015
1871.589966
1881.540039
1878.300049
1888.339966
1898.390015
1908.430054
1918.459961
1928.500000
1938.530029
1948.560059
1958.589966
1968.619995
1978.640015
1988.670044
1998.689941
2008.699951
2018.719971
2028.729980
2038.739990
2048.750000
2058.760010
2068.760010
2078.770020
2088.770020
2098.770020
2108.760010
2118.760010
2128.750000
2138.739990
2148.719971
2158.709961
2168.689941
2178.669922
2188.649902
2198.629883
2208.600098
2218.570068
2228.540039
2238.510010
2248.479980
2258.439941
2268.399902
2278.360107
2288.320068
2298.270020
2308.219971
2318.169922
2328.120117
2338.070068
2348.010010
2357.949951
2367.889893
2377.830078
2387.760010
2397.689941
2407.620117
2417.550049
2427.479980
2437.399902
2447.320068
2457.239990
2467.159912
2477.080078
2486.989990
2496.899902
2506.810059
